PDI-H-COOH,,PDI-Me-COOH,PDI-OMe-COOH
Angle,Intensity,Angle,Intensity,Angle,Intensity
5,55,5,93,5,71
5.02,54,5.02,78,5.02,59
5.04,75,5.04,57,5.04,57
5.06,67,5.06,76,5.06,66
5.08,50,5.08,78,5.08,66
5.1,57,5.1,66,5.1,54
5.12,66,5.12,75,5.12,69
5.14,56,5.14,65,5.14,62
5.16,50,5.16,90,5.16,70
5.18,68,5.18,92,5.18,60
5.2,64,5.2,68,5.2,57
5.22,78,5.22,68,5.22,68
5.24,41,5.24,82,5.24,63
5.26,69,5.26,69,5.26,55
5.28,63,5.28,94,5.28,61
5.3,65,5.3,96,5.3,60
5.32,72,5.32,74,5.32,59
5.34,55,5.34,87,5.34,71
5.36,68,5.36,87,5.36,71
5.38,77,5.38,84,5.38,69
5.4,70,5.4,92,5.4,52
5.42,57,5.42,94,5.42,55
5.44,57,5.44,88,5.44,75
5.46,45,5.46,118,5.46,68
5.48,58,5.48,118,5.48,76
5.5,72,5.5,100,5.5,68
5.52,73,5.52,126,5.52,80
5.54,82,5.54,110,5.54,73
5.56,81,5.56,129,5.56,74
5.58,72,5.58,125,5.58,54
5.6,78,5.6,127,5.6,74
5.62,92,5.62,135,5.62,85
5.64,74,5.64,144,5.64,79
5.66,79,5.66,168,5.66,70
5.68,90,5.68,173,5.68,72
5.7,86,5.7,178,5.7,78
5.72,94,5.72,173,5.72,94
5.74,86,5.74,198,5.74,72
5.76,100,5.76,207,5.76,96
5.78,76,5.78,228,5.78,112
5.8,99,5.8,244,5.8,89
5.82,104,5.82,249,5.82,112
5.84,120,5.84,275,5.84,87
5.86,128,5.86,288,5.86,101
5.88,104,5.88,296,5.88,125
5.9,117,5.9,344,5.9,116
5.92,137,5.92,375,5.92,128
5.94,134,5.94,404,5.94,161
5.96,165,5.96,455,5.96,162
5.98,167,5.98,418,5.98,134
6,196,6,483,6,134
6.02,211,6.02,472,6.02,114
6.04,246,6.04,526,6.04,97
6.06,276,6.06,462,6.06,93
6.08,329,6.08,456,6.08,88
6.1,358,6.1,445,6.1,74
6.12,345,6.12,427,6.12,65
6.14,275,6.14,347,6.14,73
6.16,195,6.16,333,6.16,69
6.18,151,6.18,346,6.18,59
6.2,89,6.2,275,6.2,59
6.22,76,6.22,291,6.22,70
6.24,59,6.24,246,6.24,61
6.26,51,6.26,220,6.26,55
6.28,49,6.28,182,6.28,64
6.3,65,6.3,174,6.3,76
6.32,53,6.32,124,6.32,82
6.34,61,6.34,128,6.34,68
6.36,41,6.36,117,6.36,79
6.38,51,6.38,101,6.38,74
6.4,54,6.4,83,6.4,72
6.42,50,6.42,60,6.42,74
6.44,65,6.44,88,6.44,68
6.46,47,6.46,66,6.46,90
6.48,42,6.48,57,6.48,87
6.5,50,6.5,52,6.5,86
6.52,52,6.52,56,6.52,94
6.54,37,6.54,56,6.54,93
6.56,46,6.56,55,6.56,92
6.58,65,6.58,49,6.58,104
6.6,45,6.6,43,6.6,111
6.62,45,6.62,53,6.62,106
6.64,45,6.64,45,6.64,111
6.66,49,6.66,45,6.66,126
6.68,55,6.68,37,6.68,124
6.7,75,6.7,44,6.7,142
6.72,58,6.72,38,6.72,142
6.74,78,6.74,28,6.74,138
6.76,51,6.76,40,6.76,151
6.78,62,6.78,43,6.78,164
6.8,52,6.8,41,6.8,181
6.82,57,6.82,39,6.82,172
6.84,63,6.84,37,6.84,161
6.86,62,6.86,41,6.86,178
6.88,74,6.88,43,6.88,166
6.9,66,6.9,39,6.9,178
6.92,86,6.92,31,6.92,140
6.94,79,6.94,34,6.94,148
6.96,95,6.96,44,6.96,173
6.98,92,6.98,38,6.98,138
7,112,7,35,7,147
7.02,106,7.02,41,7.02,133
7.04,122,7.04,43,7.04,121
7.06,119,7.06,39,7.06,114
7.08,110,7.08,39,7.08,119
7.1,96,7.1,30,7.1,119
7.12,67,7.12,41,7.12,89
7.14,68,7.14,35,7.14,110
7.16,53,7.16,33,7.16,101
7.18,34,7.18,37,7.18,76
7.2,42,7.2,44,7.2,80
7.22,53,7.22,35,7.22,47
7.24,40,7.24,33,7.24,73
7.26,41,7.26,36,7.26,61
7.28,46,7.28,43,7.28,58
7.3,50,7.3,34,7.3,45
7.32,40,7.32,46,7.32,49
7.34,42,7.34,34,7.34,48
7.36,36,7.36,35,7.36,60
7.38,43,7.38,31,7.38,35
7.4,54,7.4,39,7.4,36
7.42,51,7.42,26,7.42,41
7.44,52,7.44,24,7.44,39
7.46,47,7.46,49,7.46,43
7.48,46,7.48,42,7.48,43
7.5,48,7.5,36,7.5,55
7.52,56,7.52,52,7.52,35
7.54,55,7.54,48,7.54,40
7.56,61,7.56,42,7.56,42
7.58,62,7.58,40,7.58,49
7.6,60,7.6,30,7.6,40
7.62,60,7.62,35,7.62,48
7.64,74,7.64,40,7.64,34
7.66,67,7.66,45,7.66,50
7.68,70,7.68,46,7.68,37
7.7,63,7.7,45,7.7,46
7.72,73,7.72,51,7.72,47
7.74,83,7.74,35,7.74,54
7.76,101,7.76,39,7.76,41
7.78,89,7.78,45,7.78,54
7.8,83,7.8,35,7.8,49
7.82,94,7.82,39,7.82,44
7.84,94,7.84,47,7.84,40
7.86,103,7.86,44,7.86,44
7.88,132,7.88,36,7.88,51
7.9,127,7.9,43,7.9,46
7.92,160,7.92,51,7.92,41
7.94,159,7.94,45,7.94,25
7.96,187,7.96,36,7.96,44
7.98,168,7.98,41,7.98,32
8,166,8,47,8,26
8.02,119,8.02,42,8.02,45
8.04,75,8.04,38,8.04,41
8.06,63,8.06,53,8.06,32
8.08,41,8.08,53,8.08,43
8.1,48,8.1,52,8.1,43
8.12,43,8.12,63,8.12,26
8.14,32,8.14,56,8.14,33
8.16,56,8.16,57,8.16,41
8.18,50,8.18,63,8.18,37
8.2,46,8.2,60,8.2,38
8.22,47,8.22,78,8.22,36
8.24,52,8.24,71,8.24,37
8.26,44,8.26,45,8.26,45
8.28,41,8.28,60,8.28,48
8.3,54,8.3,82,8.3,40
8.32,53,8.32,54,8.32,35
8.34,34,8.34,65,8.34,34
8.36,43,8.36,42,8.36,27
8.38,40,8.38,50,8.38,36
8.4,36,8.4,51,8.4,32
8.42,41,8.42,40,8.42,40
8.44,41,8.44,37,8.44,42
8.46,22,8.46,46,8.46,38
8.48,37,8.48,45,8.48,38
8.5,38,8.5,32,8.5,32
8.52,33,8.52,48,8.52,33
8.54,30,8.54,34,8.54,29
8.56,31,8.56,39,8.56,31
8.58,33,8.58,36,8.58,33
8.6,35,8.6,28,8.6,45
8.62,31,8.62,43,8.62,38
8.64,34,8.64,34,8.64,43
8.66,41,8.66,38,8.66,21
8.68,45,8.68,38,8.68,32
8.7,50,8.7,29,8.7,39
8.72,31,8.72,35,8.72,42
8.74,39,8.74,36,8.74,37
8.76,29,8.76,43,8.76,29
8.78,34,8.78,46,8.78,40
8.8,29,8.8,40,8.8,36
8.82,33,8.82,38,8.82,29
8.84,52,8.84,38,8.84,27
8.86,49,8.86,29,8.86,48
8.88,38,8.88,43,8.88,30
8.9,38,8.9,37,8.9,39
8.92,44,8.92,40,8.92,43
8.94,27,8.94,41,8.94,31
8.96,44,8.96,41,8.96,28
8.98,34,8.98,54,8.98,41
9,32,9,45,9,47
9.02,40,9.02,42,9.02,39
9.04,38,9.04,43,9.04,36
9.06,41,9.06,48,9.06,26
9.08,46,9.08,44,9.08,43
9.1,43,9.1,43,9.1,43
9.12,54,9.12,53,9.12,28
9.14,54,9.14,48,9.14,22
9.16,40,9.16,52,9.16,39
9.18,57,9.18,51,9.18,44
9.2,53,9.2,57,9.2,39
9.22,54,9.22,65,9.22,35
9.24,51,9.24,67,9.24,31
9.26,58,9.26,51,9.26,37
9.28,61,9.28,67,9.28,25
9.3,73,9.3,48,9.3,39
9.32,63,9.32,62,9.32,22
9.34,75,9.34,74,9.34,42
9.36,78,9.36,57,9.36,32
9.38,72,9.38,48,9.38,26
9.4,94,9.4,55,9.4,42
9.42,80,9.42,57,9.42,36
9.44,108,9.44,58,9.44,31
9.46,94,9.46,62,9.46,33
9.48,111,9.48,63,9.48,32
9.5,153,9.5,46,9.5,46
9.52,150,9.52,38,9.52,31
9.54,172,9.54,57,9.54,37
9.56,173,9.56,57,9.56,33
9.58,192,9.58,56,9.58,36
9.6,148,9.6,61,9.6,43
9.62,118,9.62,59,9.62,30
9.64,92,9.64,56,9.64,34
9.66,66,9.66,53,9.66,46
9.68,45,9.68,59,9.68,31
9.7,55,9.7,80,9.7,43
9.72,33,9.72,71,9.72,35
9.74,31,9.74,64,9.74,44
9.76,47,9.76,76,9.76,26
9.78,42,9.78,82,9.78,32
9.8,52,9.8,69,9.8,43
9.82,37,9.82,68,9.82,38
9.84,45,9.84,75,9.84,37
9.86,58,9.86,78,9.86,42
9.88,43,9.88,83,9.88,35
9.9,52,9.9,87,9.9,42
9.92,44,9.92,88,9.92,36
9.94,46,9.94,82,9.94,42
9.96,45,9.96,86,9.96,46
9.98,42,9.98,76,9.98,33
10,64,10,80,10,35
10.02,57,10.02,91,10.02,43
10.04,53,10.04,89,10.04,41
10.06,55,10.06,88,10.06,34
10.08,61,10.08,112,10.08,28
10.1,62,10.1,98,10.1,40
10.12,49,10.12,102,10.12,67
10.14,54,10.14,99,10.14,40
10.16,42,10.16,111,10.16,40
10.18,46,10.18,115,10.18,50
10.2,41,10.2,105,10.2,64
10.22,46,10.22,131,10.22,45
10.24,46,10.24,110,10.24,48
10.26,41,10.26,113,10.26,57
10.28,37,10.28,106,10.28,54
10.3,36,10.3,99,10.3,51
10.32,39,10.32,94,10.32,50
10.34,38,10.34,102,10.34,59
10.36,53,10.36,98,10.36,62
10.38,50,10.38,83,10.38,61
10.4,49,10.4,73,10.4,73
10.42,56,10.42,73,10.42,58
10.44,50,10.44,66,10.44,74
10.46,53,10.46,69,10.46,64
10.48,74,10.48,71,10.48,46
10.5,69,10.5,61,10.5,50
10.52,43,10.52,58,10.52,60
10.54,46,10.54,67,10.54,55
10.56,55,10.56,59,10.56,73
10.58,40,10.58,62,10.58,59
10.6,39,10.6,50,10.6,69
10.62,30,10.62,35,10.62,66
10.64,36,10.64,48,10.64,71
10.66,26,10.66,41,10.66,42
10.68,36,10.68,42,10.68,44
10.7,42,10.7,31,10.7,50
10.72,37,10.72,39,10.72,58
10.74,36,10.74,30,10.74,63
10.76,30,10.76,43,10.76,53
10.78,35,10.78,35,10.78,59
10.8,31,10.8,37,10.8,61
10.82,43,10.82,41,10.82,53
10.84,35,10.84,34,10.84,68
10.86,33,10.86,35,10.86,53
10.88,40,10.88,29,10.88,66
10.9,47,10.9,31,10.9,55
10.92,34,10.92,33,10.92,64
10.94,28,10.94,29,10.94,50
10.96,35,10.96,34,10.96,61
10.98,36,10.98,44,10.98,57
11,33,11,32,11,26
11.02,40,11.02,29,11.02,55
11.04,38,11.04,32,11.04,44
11.06,37,11.06,25,11.06,31
11.08,48,11.08,29,11.08,50
11.1,36,11.1,27,11.1,37
11.12,32,11.12,25,11.12,49
11.14,36,11.14,24,11.14,42
11.16,38,11.16,32,11.16,52
11.18,49,11.18,36,11.18,53
11.2,27,11.2,26,11.2,60
11.22,49,11.22,36,11.22,54
11.24,40,11.24,26,11.24,60
11.26,45,11.26,33,11.26,57
11.28,36,11.28,39,11.28,72
11.3,60,11.3,36,11.3,67
11.32,47,11.32,41,11.32,64
11.34,57,11.34,32,11.34,78
11.36,62,11.36,23,11.36,59
11.38,78,11.38,23,11.38,65
11.4,73,11.4,37,11.4,73
11.42,93,11.42,36,11.42,64
11.44,87,11.44,29,11.44,76
11.46,98,11.46,27,11.46,62
11.48,92,11.48,38,11.48,66
11.5,76,11.5,41,11.5,42
11.52,87,11.52,29,11.52,66
11.54,86,11.54,34,11.54,50
11.56,69,11.56,29,11.56,59
11.58,59,11.58,32,11.58,48
11.6,58,11.6,31,11.6,66
11.62,44,11.62,42,11.62,44
11.64,37,11.64,49,11.64,56
11.66,47,11.66,36,11.66,59
11.68,38,11.68,36,11.68,66
11.7,42,11.7,34,11.7,55
11.72,44,11.72,36,11.72,60
11.74,48,11.74,44,11.74,75
11.76,58,11.76,47,11.76,75
11.78,44,11.78,41,11.78,73
11.8,25,11.8,49,11.8,78
11.82,48,11.82,44,11.82,103
11.84,28,11.84,59,11.84,75
11.86,44,11.86,57,11.86,98
11.88,40,11.88,57,11.88,97
11.9,42,11.9,52,11.9,107
11.92,42,11.92,54,11.92,106
11.94,45,11.94,52,11.94,127
11.96,39,11.96,68,11.96,131
11.98,28,11.98,62,11.98,150
12,36,12,68,12,129
12.02,37,12.02,96,12.02,180
12.04,30,12.04,62,12.04,184
12.06,36,12.06,73,12.06,192
12.08,46,12.08,82,12.08,212
12.1,41,12.1,87,12.1,224
12.12,49,12.12,76,12.12,240
12.14,40,12.14,79,12.14,273
12.16,62,12.16,80,12.16,264
12.18,47,12.18,70,12.18,265
12.2,65,12.2,72,12.2,260
12.22,45,12.22,71,12.22,211
12.24,56,12.24,63,12.24,223
12.26,68,12.26,63,12.26,170
12.28,68,12.28,54,12.28,136
12.3,81,12.3,49,12.3,113
12.32,79,12.32,41,12.32,124
12.34,79,12.34,48,12.34,92
12.36,89,12.36,41,12.36,83
12.38,74,12.38,31,12.38,54
12.4,73,12.4,41,12.4,68
12.42,77,12.42,45,12.42,53
12.44,68,12.44,48,12.44,48
12.46,52,12.46,43,12.46,51
12.48,52,12.48,41,12.48,56
12.5,43,12.5,30,12.5,39
12.52,38,12.52,43,12.52,41
12.54,38,12.54,36,12.54,39
12.56,31,12.56,32,12.56,46
12.58,30,12.58,36,12.58,38
12.6,31,12.6,40,12.6,49
12.62,22,12.62,36,12.62,38
12.64,40,12.64,33,12.64,44
12.66,34,12.66,29,12.66,35
12.68,24,12.68,28,12.68,39
12.7,22,12.7,47,12.7,43
12.72,27,12.72,35,12.72,36
12.74,26,12.74,29,12.74,38
12.76,34,12.76,38,12.76,42
12.78,23,12.78,29,12.78,35
12.8,27,12.8,39,12.8,32
12.82,29,12.82,29,12.82,42
12.84,32,12.84,33,12.84,33
12.86,36,12.86,34,12.86,37
12.88,34,12.88,31,12.88,29
12.9,28,12.9,31,12.9,29
12.92,21,12.92,29,12.92,36
12.94,28,12.94,39,12.94,45
12.96,27,12.96,30,12.96,40
12.98,26,12.98,38,12.98,36
13,36,13,26,13,46
13.02,29,13.02,43,13.02,43
13.04,38,13.04,41,13.04,30
13.06,32,13.06,25,13.06,47
13.08,24,13.08,34,13.08,45
13.1,26,13.1,34,13.1,40
13.12,26,13.12,38,13.12,37
13.14,30,13.14,37,13.14,38
13.16,32,13.16,32,13.16,40
13.18,36,13.18,35,13.18,46
13.2,41,13.2,42,13.2,36
13.22,30,13.22,58,13.22,43
13.24,39,13.24,34,13.24,34
13.26,39,13.26,41,13.26,51
13.28,39,13.28,41,13.28,43
13.3,36,13.3,41,13.3,43
13.32,21,13.32,47,13.32,54
13.34,25,13.34,34,13.34,64
13.36,47,13.36,33,13.36,53
13.38,34,13.38,29,13.38,71
13.4,46,13.4,54,13.4,59
13.42,38,13.42,56,13.42,62
13.44,38,13.44,53,13.44,80
13.46,40,13.46,53,13.46,76
13.48,41,13.48,48,13.48,67
13.5,52,13.5,51,13.5,96
13.52,47,13.52,62,13.52,103
13.54,45,13.54,64,13.54,90
13.56,48,13.56,51,13.56,110
13.58,49,13.58,62,13.58,99
13.6,50,13.6,73,13.6,128
13.62,58,13.62,74,13.62,101
13.64,76,13.64,79,13.64,138
13.66,61,13.66,82,13.66,106
13.68,77,13.68,78,13.68,131
13.7,84,13.7,100,13.7,102
13.72,103,13.72,82,13.72,112
13.74,100,13.74,109,13.74,111
13.76,112,13.76,80,13.76,105
13.78,94,13.78,120,13.78,105
13.8,104,13.8,124,13.8,89
13.82,135,13.82,137,13.82,96
13.84,154,13.84,147,13.84,82
13.86,172,13.86,158,13.86,67
13.88,202,13.88,173,13.88,85
13.9,256,13.9,184,13.9,69
13.92,250,13.92,210,13.92,74
13.94,309,13.94,191,13.94,77
13.96,278,13.96,219,13.96,55
13.98,277,13.98,212,13.98,65
14,211,14,249,14,66
14.02,176,14.02,263,14.02,48
14.04,142,14.04,251,14.04,60
14.06,108,14.06,247,14.06,46
14.08,86,14.08,252,14.08,46
14.1,56,14.1,266,14.1,63
14.12,71,14.12,228,14.12,63
14.14,47,14.14,234,14.14,60
14.16,29,14.16,246,14.16,63
14.18,38,14.18,236,14.18,61
14.2,47,14.2,200,14.2,59
14.22,50,14.22,198,14.22,42
14.24,44,14.24,212,14.24,52
14.26,35,14.26,205,14.26,47
14.28,35,14.28,181,14.28,47
14.3,37,14.3,171,14.3,59
14.32,53,14.32,139,14.32,49
14.34,28,14.34,160,14.34,52
14.36,29,14.36,143,14.36,43
14.38,30,14.38,128,14.38,49
14.4,39,14.4,114,14.4,34
14.42,29,14.42,125,14.42,39
14.44,36,14.44,90,14.44,33
14.46,41,14.46,107,14.46,28
14.48,38,14.48,104,14.48,39
14.5,37,14.5,80,14.5,32
14.52,28,14.52,87,14.52,31
14.54,37,14.54,75,14.54,34
14.56,39,14.56,51,14.56,33
14.58,27,14.58,60,14.58,39
14.6,31,14.6,63,14.6,40
14.62,28,14.62,66,14.62,36
14.64,35,14.64,49,14.64,40
14.66,36,14.66,51,14.66,34
14.68,38,14.68,45,14.68,45
14.7,24,14.7,46,14.7,41
14.72,41,14.72,49,14.72,47
14.74,33,14.74,43,14.74,35
14.76,33,14.76,32,14.76,26
14.78,35,14.78,53,14.78,35
14.8,34,14.8,41,14.8,44
14.82,40,14.82,51,14.82,34
14.84,42,14.84,31,14.84,46
14.86,31,14.86,45,14.86,40
14.88,38,14.88,55,14.88,36
14.9,31,14.9,60,14.9,34
14.92,35,14.92,60,14.92,37
14.94,33,14.94,60,14.94,33
14.96,33,14.96,46,14.96,33
14.98,37,14.98,55,14.98,43
15,39,15,67,15,45
15.02,40,15.02,50,15.02,48
15.04,34,15.04,76,15.04,48
15.06,49,15.06,71,15.06,33
15.08,45,15.08,70,15.08,40
15.1,50,15.1,59,15.1,47
15.12,42,15.12,63,15.12,39
15.14,40,15.14,58,15.14,37
15.16,62,15.16,61,15.16,36
15.18,34,15.18,61,15.18,39
15.2,58,15.2,59,15.2,33
15.22,81,15.22,49,15.22,31
15.24,53,15.24,58,15.24,27
15.26,67,15.26,58,15.26,34
15.28,78,15.28,59,15.28,40
15.3,74,15.3,46,15.3,29
15.32,61,15.32,49,15.32,33
15.34,61,15.34,48,15.34,29
15.36,58,15.36,47,15.36,37
15.38,50,15.38,34,15.38,43
15.4,52,15.4,39,15.4,31
15.42,51,15.42,37,15.42,43
15.44,42,15.44,39,15.44,30
15.46,51,15.46,37,15.46,30
15.48,35,15.48,34,15.48,20
15.5,44,15.5,42,15.5,41
15.52,41,15.52,40,15.52,33
15.54,50,15.54,37,15.54,36
15.56,49,15.56,48,15.56,35
15.58,48,15.58,45,15.58,29
15.6,76,15.6,37,15.6,27
15.62,71,15.62,36,15.62,36
15.64,61,15.64,36,15.64,34
15.66,86,15.66,40,15.66,35
15.68,76,15.68,36,15.68,40
15.7,82,15.7,38,15.7,42
15.72,97,15.72,47,15.72,45
15.74,111,15.74,45,15.74,42
15.76,96,15.76,37,15.76,34
15.78,104,15.78,46,15.78,27
15.8,104,15.8,27,15.8,39
15.82,107,15.82,45,15.82,41
15.84,96,15.84,44,15.84,42
15.86,92,15.86,45,15.86,34
15.88,114,15.88,59,15.88,34
15.9,121,15.9,43,15.9,33
15.92,116,15.92,46,15.92,53
15.94,160,15.94,62,15.94,41
15.96,161,15.96,63,15.96,42
15.98,176,15.98,46,15.98,50
16,213,16,43,16,57
16.02,183,16.02,60,16.02,54
16.04,160,16.04,59,16.04,57
16.06,151,16.06,79,16.06,50
16.08,136,16.08,65,16.08,39
16.1,139,16.1,77,16.1,53
16.12,112,16.12,81,16.12,44
16.14,109,16.14,85,16.14,48
16.16,89,16.16,108,16.16,36
16.18,91,16.18,114,16.18,47
16.2,54,16.2,102,16.2,36
16.22,60,16.22,117,16.22,36
16.24,79,16.24,119,16.24,46
16.26,59,16.26,126,16.26,31
16.28,58,16.28,124,16.28,49
16.3,55,16.3,135,16.3,44
16.32,80,16.32,119,16.32,45
16.34,78,16.34,134,16.34,45
16.36,84,16.36,144,16.36,47
16.38,97,16.38,118,16.38,43
16.4,90,16.4,128,16.4,51
16.42,98,16.42,163,16.42,48
16.44,111,16.44,139,16.44,62
16.46,134,16.46,148,16.46,59
16.48,151,16.48,127,16.48,54
16.5,163,16.5,153,16.5,45
16.52,174,16.52,114,16.52,47
16.54,149,16.54,112,16.54,50
16.56,136,16.56,130,16.56,55
16.58,138,16.58,117,16.58,59
16.6,110,16.6,115,16.6,50
16.62,92,16.62,86,16.62,55
16.64,96,16.64,101,16.64,39
16.66,99,16.66,85,16.66,43
16.68,91,16.68,122,16.68,48
16.7,107,16.7,82,16.7,40
16.72,72,16.72,81,16.72,42
16.74,100,16.74,86,16.74,54
16.76,76,16.76,91,16.76,43
16.78,64,16.78,69,16.78,49
16.8,63,16.8,91,16.8,35
16.82,44,16.82,74,16.82,44
16.84,40,16.84,84,16.84,35
16.86,52,16.86,84,16.86,53
16.88,56,16.88,73,16.88,49
16.9,45,16.9,70,16.9,43
16.92,50,16.92,89,16.92,51
16.94,37,16.94,66,16.94,48
16.96,45,16.96,60,16.96,55
16.98,44,16.98,73,16.98,50
17,38,17,76,17,46
17.02,33,17.02,85,17.02,53
17.04,40,17.04,65,17.04,48
17.06,27,17.06,76,17.06,59
17.08,44,17.08,75,17.08,37
17.1,30,17.1,68,17.1,51
17.12,35,17.12,73,17.12,46
17.14,53,17.14,73,17.14,47
17.16,41,17.16,53,17.16,48
17.18,36,17.18,69,17.18,40
17.2,41,17.2,52,17.2,38
17.22,40,17.22,58,17.22,38
17.24,31,17.24,58,17.24,40
17.26,43,17.26,53,17.26,43
17.28,40,17.28,74,17.28,48
17.3,42,17.3,63,17.3,33
17.32,40,17.32,66,17.32,33
17.34,30,17.34,78,17.34,52
17.36,46,17.36,74,17.36,57
17.38,46,17.38,61,17.38,52
17.4,40,17.4,71,17.4,41
17.42,31,17.42,76,17.42,35
17.44,38,17.44,68,17.44,44
17.46,42,17.46,71,17.46,35
17.48,55,17.48,77,17.48,48
17.5,50,17.5,75,17.5,48
17.52,52,17.52,84,17.52,56
17.54,57,17.54,73,17.54,67
17.56,57,17.56,76,17.56,55
17.58,54,17.58,66,17.58,55
17.6,63,17.6,70,17.6,65
17.62,66,17.62,67,17.62,63
17.64,82,17.64,61,17.64,53
17.66,60,17.66,75,17.66,65
17.68,83,17.68,73,17.68,61
17.7,91,17.7,70,17.7,72
17.72,82,17.72,64,17.72,75
17.74,73,17.74,78,17.74,78
17.76,86,17.76,64,17.76,71
17.78,75,17.78,67,17.78,67
17.8,48,17.8,77,17.8,81
17.82,57,17.82,59,17.82,63
17.84,55,17.84,80,17.84,80
17.86,66,17.86,75,17.86,61
17.88,86,17.88,70,17.88,87
17.9,69,17.9,77,17.9,88
17.92,77,17.92,81,17.92,77
17.94,89,17.94,79,17.94,79
17.96,87,17.96,90,17.96,96
17.98,109,17.98,86,17.98,69
18,83,18,91,18,69
18.02,108,18.02,94,18.02,99
18.04,96,18.04,104,18.04,87
18.06,99,18.06,103,18.06,78
18.08,82,18.08,122,18.08,87
18.1,82,18.1,112,18.1,81
18.12,77,18.12,121,18.12,80
18.14,82,18.14,122,18.14,80
18.16,66,18.16,148,18.16,73
18.18,73,18.18,150,18.18,84
18.2,79,18.2,167,18.2,91
18.22,62,18.22,154,18.22,90
18.24,83,18.24,171,18.24,87
18.26,64,18.26,164,18.26,95
18.28,83,18.28,195,18.28,109
18.3,102,18.3,201,18.3,117
18.32,105,18.32,239,18.32,97
18.34,90,18.34,249,18.34,116
18.36,130,18.36,297,18.36,125
18.38,117,18.38,280,18.38,111
18.4,140,18.4,282,18.4,124
18.42,109,18.42,351,18.42,149
18.44,113,18.44,397,18.44,165
18.46,123,18.46,365,18.46,142
18.48,107,18.48,440,18.48,173
18.5,106,18.5,409,18.5,174
18.52,95,18.52,443,18.52,172
18.54,89,18.54,401,18.54,167
18.56,75,18.56,422,18.56,158
18.58,70,18.58,387,18.58,168
18.6,75,18.6,397,18.6,163
18.62,68,18.62,421,18.62,145
18.64,59,18.64,365,18.64,157
18.66,72,18.66,337,18.66,162
18.68,73,18.68,327,18.68,131
18.7,81,18.7,320,18.7,130
18.72,82,18.72,288,18.72,119
18.74,81,18.74,227,18.74,131
18.76,107,18.76,249,18.76,145
18.78,86,18.78,226,18.78,108
18.8,115,18.8,221,18.8,125
18.82,127,18.82,238,18.82,132
18.84,121,18.84,182,18.84,121
18.86,141,18.86,154,18.86,102
18.88,170,18.88,156,18.88,98
18.9,181,18.9,134,18.9,94
18.92,212,18.92,130,18.92,92
18.94,240,18.94,133,18.94,93
18.96,290,18.96,118,18.96,99
18.98,316,18.98,115,18.98,79
19,384,19,104,19,89
19.02,448,19.02,95,19.02,72
19.04,548,19.04,105,19.04,73
19.06,593,19.06,129,19.06,63
19.08,743,19.08,106,19.08,73
19.1,766,19.1,97,19.1,62
19.12,876,19.12,119,19.12,70
19.14,807,19.14,100,19.14,78
19.16,710,19.16,106,19.16,75
19.18,687,19.18,110,19.18,66
19.2,518,19.2,134,19.2,84
19.22,457,19.22,118,19.22,77
19.24,360,19.24,125,19.24,69
19.26,282,19.26,117,19.26,58
19.28,202,19.28,103,19.28,70
19.3,177,19.3,116,19.3,47
19.32,208,19.32,127,19.32,61
19.34,179,19.34,127,19.34,58
19.36,154,19.36,108,19.36,68
19.38,159,19.38,129,19.38,57
19.4,150,19.4,105,19.4,81
19.42,154,19.42,108,19.42,67
19.44,147,19.44,139,19.44,71
19.46,151,19.46,127,19.46,56
19.48,141,19.48,105,19.48,52
19.5,142,19.5,100,19.5,60
19.52,133,19.52,118,19.52,70
19.54,125,19.54,117,19.54,81
19.56,110,19.56,114,19.56,92
19.58,123,19.58,111,19.58,92
19.6,90,19.6,106,19.6,83
19.62,83,19.62,84,19.62,76
19.64,76,19.64,113,19.64,86
19.66,70,19.66,98,19.66,76
19.68,61,19.68,93,19.68,90
19.7,66,19.7,84,19.7,73
19.72,69,19.72,96,19.72,114
19.74,59,19.74,103,19.74,91
19.76,52,19.76,71,19.76,98
19.78,73,19.78,114,19.78,105
19.8,86,19.8,73,19.8,95
19.82,75,19.82,80,19.82,118
19.84,89,19.84,86,19.84,136
19.86,91,19.86,81,19.86,124
19.88,99,19.88,80,19.88,133
19.9,78,19.9,70,19.9,165
19.92,93,19.92,74,19.92,169
19.94,111,19.94,67,19.94,140
19.96,98,19.96,67,19.96,173
19.98,89,19.98,77,19.98,170
20,83,20,69,20,173
20.02,65,20.02,61,20.02,199
20.04,82,20.04,67,20.04,212
20.06,73,20.06,72,20.06,196
20.08,72,20.08,72,20.08,198
20.1,85,20.1,66,20.1,211
20.12,86,20.12,67,20.12,189
20.14,78,20.14,66,20.14,172
20.16,94,20.16,73,20.16,143
20.18,119,20.18,75,20.18,166
20.2,115,20.2,54,20.2,146
20.22,133,20.22,82,20.22,136
20.24,116,20.24,67,20.24,138
20.26,143,20.26,98,20.26,122
20.28,138,20.28,86,20.28,114
20.3,158,20.3,100,20.3,98
20.32,134,20.32,86,20.32,98
20.34,156,20.34,103,20.34,108
20.36,118,20.36,100,20.36,85
20.38,120,20.38,104,20.38,114
20.4,113,20.4,112,20.4,109
20.42,103,20.42,115,20.42,92
20.44,98,20.44,104,20.44,87
20.46,116,20.46,129,20.46,99
20.48,117,20.48,118,20.48,106
20.5,125,20.5,139,20.5,70
20.52,125,20.52,92,20.52,94
20.54,126,20.54,113,20.54,76
20.56,142,20.56,115,20.56,79
20.58,126,20.58,108,20.58,88
20.6,138,20.6,106,20.6,73
20.62,134,20.62,88,20.62,102
20.64,173,20.64,108,20.64,92
20.66,156,20.66,104,20.66,96
20.68,175,20.68,104,20.68,96
20.7,214,20.7,102,20.7,95
20.72,233,20.72,91,20.72,113
20.74,270,20.74,98,20.74,110
20.76,295,20.76,84,20.76,99
20.78,308,20.78,78,20.78,121
20.8,383,20.8,89,20.8,135
20.82,378,20.82,95,20.82,113
20.84,322,20.84,81,20.84,107
20.86,296,20.86,78,20.86,116
20.88,255,20.88,78,20.88,114
20.9,185,20.9,79,20.9,120
20.92,152,20.92,64,20.92,107
20.94,103,20.94,68,20.94,126
20.96,114,20.96,87,20.96,100
20.98,87,20.98,62,20.98,113
21,96,21,66,21,118
21.02,74,21.02,75,21.02,96
21.04,64,21.04,71,21.04,84
21.06,63,21.06,64,21.06,93
21.08,61,21.08,51,21.08,79
21.1,63,21.1,68,21.1,63
21.12,61,21.12,61,21.12,76
21.14,69,21.14,63,21.14,85
21.16,65,21.16,61,21.16,76
21.18,72,21.18,70,21.18,75
21.2,65,21.2,59,21.2,72
21.22,77,21.22,59,21.22,89
21.24,51,21.24,53,21.24,96
21.26,67,21.26,57,21.26,78
21.28,53,21.28,48,21.28,101
21.3,69,21.3,57,21.3,90
21.32,61,21.32,54,21.32,81
21.34,66,21.34,46,21.34,108
21.36,52,21.36,60,21.36,106
21.38,76,21.38,68,21.38,108
21.4,57,21.4,67,21.4,125
21.42,66,21.42,61,21.42,103
21.44,83,21.44,67,21.44,129
21.46,73,21.46,67,21.46,136
21.48,80,21.48,57,21.48,133
21.5,95,21.5,68,21.5,179
21.52,110,21.52,60,21.52,174
21.54,120,21.54,56,21.54,200
21.56,113,21.56,82,21.56,200
21.58,119,21.58,77,21.58,211
21.6,156,21.6,78,21.6,190
21.62,175,21.62,84,21.62,199
21.64,177,21.64,84,21.64,214
21.66,183,21.66,84,21.66,215
21.68,170,21.68,85,21.68,185
21.7,166,21.7,95,21.7,181
21.72,149,21.72,104,21.72,189
21.74,123,21.74,104,21.74,167
21.76,123,21.76,110,21.76,156
21.78,115,21.78,122,21.78,138
21.8,111,21.8,106,21.8,115
21.82,91,21.82,123,21.82,130
21.84,112,21.84,107,21.84,112
21.86,115,21.86,119,21.86,126
21.88,99,21.88,137,21.88,137
21.9,86,21.9,116,21.9,130
21.92,88,21.92,120,21.92,110
21.94,103,21.94,108,21.94,96
21.96,99,21.96,112,21.96,102
21.98,104,21.98,113,21.98,108
22,75,22,86,22,118
22.02,71,22.02,99,22.02,114
22.04,66,22.04,101,22.04,110
22.06,121,22.06,100,22.06,96
22.08,118,22.08,103,22.08,80
22.1,110,22.1,91,22.1,100
22.12,122,22.12,86,22.12,107
22.14,140,22.14,81,22.14,102
22.16,153,22.16,98,22.16,108
22.18,148,22.18,74,22.18,105
22.2,172,22.2,73,22.2,99
22.22,169,22.22,83,22.22,95
22.24,174,22.24,93,22.24,115
22.26,191,22.26,80,22.26,115
22.28,204,22.28,80,22.28,118
22.3,234,22.3,74,22.3,95
22.32,246,22.32,70,22.32,113
22.34,284,22.34,67,22.34,121
22.36,248,22.36,87,22.36,119
22.38,306,22.38,77,22.38,108
22.4,305,22.4,72,22.4,116
22.42,285,22.42,72,22.42,85
22.44,237,22.44,85,22.44,92
22.46,225,22.46,71,22.46,105
22.48,205,22.48,71,22.48,94
22.5,170,22.5,62,22.5,70
22.52,164,22.52,73,22.52,89
22.54,146,22.54,96,22.54,84
22.56,106,22.56,74,22.56,86
22.58,85,22.58,92,22.58,96
22.6,87,22.6,106,22.6,84
22.62,74,22.62,83,22.62,66
22.64,68,22.64,89,22.64,79
22.66,60,22.66,113,22.66,94
22.68,59,22.68,89,22.68,87
22.7,59,22.7,82,22.7,86
22.72,73,22.72,88,22.72,68
22.74,69,22.74,100,22.74,75
22.76,72,22.76,94,22.76,72
22.78,76,22.78,88,22.78,98
22.8,79,22.8,85,22.8,89
22.82,72,22.82,94,22.82,83
22.84,84,22.84,86,22.84,86
22.86,94,22.86,68,22.86,78
22.88,94,22.88,94,22.88,81
22.9,75,22.9,69,22.9,88
22.92,73,22.92,78,22.92,104
22.94,49,22.94,84,22.94,110
22.96,74,22.96,72,22.96,102
22.98,74,22.98,51,22.98,111
23,74,23,70,23,72
23.02,83,23.02,67,23.02,88
23.04,80,23.04,70,23.04,87
23.06,72,23.06,67,23.06,95
23.08,92,23.08,66,23.08,78
23.1,92,23.1,63,23.1,81
23.12,83,23.12,69,23.12,110
23.14,87,23.14,51,23.14,89
23.16,113,23.16,81,23.16,108
23.18,120,23.18,66,23.18,98
23.2,127,23.2,62,23.2,102
23.22,116,23.22,64,23.22,116
23.24,145,23.24,67,23.24,134
23.26,146,23.26,60,23.26,117
23.28,153,23.28,70,23.28,113
23.3,147,23.3,69,23.3,118
23.32,162,23.32,65,23.32,118
23.34,153,23.34,63,23.34,138
23.36,136,23.36,63,23.36,142
23.38,109,23.38,76,23.38,141
23.4,118,23.4,78,23.4,156
23.42,100,23.42,71,23.42,151
23.44,92,23.44,80,23.44,153
23.46,70,23.46,81,23.46,164
23.48,70,23.48,63,23.48,156
23.5,69,23.5,89,23.5,138
23.52,70,23.52,89,23.52,151
23.54,64,23.54,90,23.54,126
23.56,62,23.56,82,23.56,110
23.58,73,23.58,82,23.58,102
23.6,68,23.6,98,23.6,97
23.62,70,23.62,93,23.62,100
23.64,60,23.64,87,23.64,94
23.66,63,23.66,122,23.66,80
23.68,73,23.68,124,23.68,79
23.7,71,23.7,124,23.7,74
23.72,66,23.72,124,23.72,94
23.74,72,23.74,113,23.74,68
23.76,81,23.76,126,23.76,78
23.78,69,23.78,147,23.78,88
23.8,67,23.8,154,23.8,87
23.82,68,23.82,134,23.82,85
23.84,91,23.84,146,23.84,69
23.86,63,23.86,146,23.86,92
23.88,70,23.88,132,23.88,89
23.9,79,23.9,148,23.9,94
23.92,78,23.92,146,23.92,79
23.94,78,23.94,160,23.94,83
23.96,83,23.96,134,23.96,108
23.98,65,23.98,129,23.98,87
24,106,24,131,24,105
24.02,93,24.02,144,24.02,95
24.04,95,24.04,146,24.04,100
24.06,92,24.06,125,24.06,96
24.08,103,24.08,116,24.08,121
24.1,107,24.1,127,24.1,99
24.12,87,24.12,117,24.12,108
24.14,123,24.14,129,24.14,95
24.16,85,24.16,118,24.16,109
24.18,70,24.18,110,24.18,129
24.2,81,24.2,105,24.2,92
24.22,67,24.22,108,24.22,107
24.24,65,24.24,131,24.24,104
24.26,66,24.26,95,24.26,117
24.28,69,24.28,125,24.28,100
24.3,68,24.3,113,24.3,113
24.32,70,24.32,93,24.32,95
24.34,56,24.34,102,24.34,107
24.36,62,24.36,90,24.36,100
24.38,57,24.38,92,24.38,86
24.4,41,24.4,99,24.4,100
24.42,47,24.42,90,24.42,87
24.44,59,24.44,87,24.44,84
24.46,44,24.46,93,24.46,102
24.48,39,24.48,77,24.48,84
24.5,43,24.5,81,24.5,86
24.52,48,24.52,77,24.52,83
24.54,43,24.54,90,24.54,76
24.56,53,24.56,86,24.56,105
24.58,46,24.58,108,24.58,122
24.6,41,24.6,84,24.6,120
24.62,59,24.62,81,24.62,127
24.64,43,24.64,108,24.64,136
24.66,53,24.66,98,24.66,134
24.68,46,24.68,95,24.68,136
24.7,49,24.7,103,24.7,169
24.72,41,24.72,123,24.72,180
24.74,58,24.74,132,24.74,179
24.76,57,24.76,110,24.76,194
24.78,48,24.78,141,24.78,196
24.8,44,24.8,118,24.8,204
24.82,70,24.82,125,24.82,188
24.84,74,24.84,125,24.84,192
24.86,70,24.86,117,24.86,199
24.88,88,24.88,124,24.88,188
24.9,85,24.9,128,24.9,179
24.92,105,24.92,131,24.92,175
24.94,106,24.94,141,24.94,172
24.96,106,24.96,138,24.96,157
24.98,138,24.98,146,24.98,127
25,121,25,147,25,134
25.02,162,25.02,154,25.02,124
25.04,172,25.04,165,25.04,116
25.06,202,25.06,150,25.06,125
25.08,230,25.08,137,25.08,107
25.1,225,25.1,142,25.1,101
25.12,264,25.12,143,25.12,117
25.14,312,25.14,133,25.14,110
25.16,342,25.16,127,25.16,106
25.18,357,25.18,108,25.18,108
25.2,391,25.2,145,25.2,110
25.22,396,25.22,110,25.22,102
25.24,451,25.24,113,25.24,94
25.26,437,25.26,126,25.26,94
25.28,453,25.28,131,25.28,106
25.3,461,25.3,119,25.3,102
25.32,408,25.32,127,25.32,97
25.34,457,25.34,146,25.34,114
25.36,418,25.36,123,25.36,101
25.38,356,25.38,127,25.38,83
25.4,332,25.4,112,25.4,105
25.42,280,25.42,128,25.42,101
25.44,223,25.44,96,25.44,80
25.46,207,25.46,117,25.46,96
25.48,189,25.48,113,25.48,110
25.5,149,25.5,125,25.5,96
25.52,137,25.52,114,25.52,97
25.54,129,25.54,110,25.54,85
25.56,121,25.56,110,25.56,113
25.58,120,25.58,107,25.58,94
25.6,112,25.6,118,25.6,96
25.62,101,25.62,103,25.62,109
25.64,83,25.64,114,25.64,102
25.66,97,25.66,95,25.66,110
25.68,96,25.68,93,25.68,97
25.7,114,25.7,86,25.7,119
25.72,101,25.72,95,25.72,125
25.74,105,25.74,91,25.74,123
25.76,95,25.76,85,25.76,137
25.78,94,25.78,101,25.78,135
25.8,91,25.8,77,25.8,139
25.82,85,25.82,69,25.82,160
25.84,79,25.84,69,25.84,139
25.86,76,25.86,92,25.86,160
25.88,101,25.88,75,25.88,151
25.9,93,25.9,82,25.9,190
25.92,112,25.92,71,25.92,176
25.94,118,25.94,79,25.94,165
25.96,109,25.96,76,25.96,157
25.98,98,25.98,86,25.98,200
26,117,26,83,26,206
26.02,124,26.02,72,26.02,201
26.04,119,26.04,90,26.04,208
26.06,150,26.06,80,26.06,192
26.08,128,26.08,73,26.08,188
26.1,156,26.1,100,26.1,180
26.12,179,26.12,91,26.12,201
26.14,174,26.14,94,26.14,184
26.16,218,26.16,78,26.16,179
26.18,213,26.18,88,26.18,178
26.2,257,26.2,87,26.2,157
26.22,290,26.22,81,26.22,155
26.24,295,26.24,88,26.24,185
26.26,322,26.26,91,26.26,179
26.28,340,26.28,83,26.28,164
26.3,342,26.3,103,26.3,168
26.32,462,26.32,86,26.32,179
26.34,467,26.34,88,26.34,152
26.36,478,26.36,95,26.36,162
26.38,521,26.38,108,26.38,159
26.4,531,26.4,99,26.4,149
26.42,532,26.42,109,26.42,162
26.44,480,26.44,92,26.44,170
26.46,427,26.46,101,26.46,157
26.48,296,26.48,105,26.48,143
26.5,263,26.5,104,26.5,184
26.52,185,26.52,89,26.52,143
26.54,158,26.54,88,26.54,165
26.56,115,26.56,116,26.56,170
26.58,127,26.58,97,26.58,185
26.6,83,26.6,97,26.6,180
26.62,81,26.62,98,26.62,183
26.64,87,26.64,109,26.64,176
26.66,68,26.66,99,26.66,164
26.68,78,26.68,95,26.68,179
26.7,83,26.7,112,26.7,151
26.72,84,26.72,119,26.72,166
26.74,72,26.74,132,26.74,175
26.76,73,26.76,124,26.76,174
26.78,74,26.78,122,26.78,125
26.8,66,26.8,153,26.8,143
26.82,59,26.82,119,26.82,104
26.84,61,26.84,116,26.84,124
26.86,63,26.86,110,26.86,98
26.88,71,26.88,122,26.88,108
26.9,64,26.9,115,26.9,104
26.92,60,26.92,121,26.92,86
26.94,70,26.94,118,26.94,84
26.96,77,26.96,125,26.96,86
26.98,74,26.98,131,26.98,83
27,79,27,134,27,64
27.02,81,27.02,148,27.02,87
27.04,96,27.04,120,27.04,71
27.06,77,27.06,126,27.06,57
27.08,83,27.08,149,27.08,56
27.1,110,27.1,164,27.1,94
27.12,98,27.12,131,27.12,67
27.14,116,27.14,127,27.14,86
27.16,107,27.16,141,27.16,86
27.18,128,27.18,135,27.18,92
27.2,90,27.2,145,27.2,91
27.22,94,27.22,142,27.22,83
27.24,99,27.24,146,27.24,63
27.26,81,27.26,135,27.26,78
27.28,98,27.28,151,27.28,78
27.3,98,27.3,158,27.3,83
27.32,115,27.32,134,27.32,79
27.34,88,27.34,159,27.34,81
27.36,90,27.36,141,27.36,76
27.38,96,27.38,148,27.38,90
27.4,103,27.4,151,27.4,82
27.42,105,27.42,132,27.42,79
27.44,105,27.44,145,27.44,79
27.46,111,27.46,143,27.46,73
27.48,130,27.48,156,27.48,61
27.5,117,27.5,145,27.5,89
27.52,130,27.52,163,27.52,77
27.54,128,27.54,129,27.54,64
27.56,136,27.56,147,27.56,86
27.58,148,27.58,162,27.58,96
27.6,128,27.6,158,27.6,90
27.62,156,27.62,147,27.62,87
27.64,122,27.64,131,27.64,80
27.66,131,27.66,159,27.66,76
27.68,114,27.68,126,27.68,82
27.7,114,27.7,127,27.7,75
27.72,93,27.72,147,27.72,85
27.74,92,27.74,155,27.74,85
27.76,74,27.76,122,27.76,83
27.78,69,27.78,135,27.78,90
27.8,62,27.8,157,27.8,91
27.82,58,27.82,132,27.82,86
27.84,43,27.84,137,27.84,77
27.86,57,27.86,138,27.86,92
27.88,72,27.88,120,27.88,84
27.9,68,27.9,123,27.9,72
27.92,57,27.92,127,27.92,61
27.94,63,27.94,127,27.94,83
27.96,64,27.96,111,27.96,70
27.98,54,27.98,109,27.98,77
28,54,28,86,28,78
28.02,69,28.02,113,28.02,79
28.04,56,28.04,109,28.04,84
28.06,74,28.06,96,28.06,81
28.08,58,28.08,91,28.08,80
28.1,60,28.1,96,28.1,101
28.12,59,28.12,95,28.12,109
28.14,71,28.14,108,28.14,91
28.16,67,28.16,105,28.16,102
28.18,72,28.18,97,28.18,103
28.2,66,28.2,78,28.2,96
28.22,95,28.22,112,28.22,95
28.24,74,28.24,86,28.24,74
28.26,82,28.26,83,28.26,87
28.28,87,28.28,79,28.28,84
28.3,102,28.3,86,28.3,68
28.32,96,28.32,77,28.32,84
28.34,119,28.34,101,28.34,89
28.36,156,28.36,70,28.36,84
28.38,130,28.38,77,28.38,85
28.4,147,28.4,79,28.4,86
28.42,162,28.42,78,28.42,78
28.44,185,28.44,63,28.44,93
28.46,226,28.46,82,28.46,91
28.48,213,28.48,70,28.48,97
28.5,227,28.5,76,28.5,96
28.52,260,28.52,73,28.52,111
28.54,258,28.54,82,28.54,99
28.56,267,28.56,76,28.56,118
28.58,276,28.58,71,28.58,132
28.6,260,28.6,79,28.6,163
28.62,266,28.62,81,28.62,178
28.64,237,28.64,83,28.64,177
28.66,279,28.66,98,28.66,170
28.68,211,28.68,88,28.68,192
28.7,217,28.7,84,28.7,200
28.72,186,28.72,88,28.72,205
28.74,168,28.74,72,28.74,237
28.76,131,28.76,74,28.76,196
28.78,149,28.78,108,28.78,252
28.8,131,28.8,92,28.8,196
28.82,139,28.82,82,28.82,194
28.84,132,28.84,74,28.84,178
28.86,104,28.86,106,28.86,172
28.88,110,28.88,82,28.88,146
28.9,100,28.9,83,28.9,133
28.92,95,28.92,86,28.92,117
28.94,94,28.94,77,28.94,94
28.96,94,28.96,80,28.96,86
28.98,99,28.98,80,28.98,95
29,71,29,77,29,84
29.02,66,29.02,39,29.02,97
29.04,74,29.04,68,29.04,85
29.06,61,29.06,61,29.06,95
29.08,57,29.08,65,29.08,84
29.1,55,29.1,66,29.1,91
29.12,63,29.12,65,29.12,82
29.14,63,29.14,49,29.14,81
29.16,49,29.16,61,29.16,75
29.18,64,29.18,42,29.18,76
29.2,74,29.2,58,29.2,87
29.22,85,29.22,60,29.22,88
29.24,84,29.24,58,29.24,89
29.26,109,29.26,42,29.26,82
29.28,74,29.28,61,29.28,91
29.3,110,29.3,58,29.3,78
29.32,97,29.32,57,29.32,108
29.34,121,29.34,44,29.34,88
29.36,126,29.36,52,29.36,88
29.38,107,29.38,47,29.38,78
29.4,154,29.4,52,29.4,105
29.42,146,29.42,58,29.42,111
29.44,139,29.44,51,29.44,85
29.46,122,29.46,66,29.46,95
29.48,141,29.48,52,29.48,113
29.5,135,29.5,72,29.5,105
29.52,151,29.52,59,29.52,127
29.54,128,29.54,63,29.54,119
29.56,132,29.56,80,29.56,116
29.58,127,29.58,59,29.58,107
29.6,151,29.6,76,29.6,125
29.62,172,29.62,64,29.62,136
29.64,158,29.64,76,29.64,129
29.66,181,29.66,73,29.66,117
29.68,203,29.68,97,29.68,120
29.7,232,29.7,74,29.7,131
29.72,198,29.72,82,29.72,131
29.74,209,29.74,84,29.74,84
29.76,213,29.76,78,29.76,96
29.78,218,29.78,84,29.78,86
29.8,213,29.8,67,29.8,84
29.82,195,29.82,79,29.82,76
29.84,179,29.84,81,29.84,107
29.86,159,29.86,93,29.86,74
29.88,127,29.88,75,29.88,77
29.9,111,29.9,76,29.9,65
29.92,91,29.92,70,29.92,80
29.94,96,29.94,83,29.94,82
29.96,75,29.96,69,29.96,82
29.98,67,29.98,69,29.98,73
30,91,30,79,30,85
30.02,86,30.02,87,30.02,77
30.04,103,30.04,89,30.04,82
30.06,104,30.06,83,30.06,65
30.08,110,30.08,84,30.08,89
30.1,121,30.1,67,30.1,91
30.12,139,30.12,70,30.12,99
30.14,120,30.14,91,30.14,89
30.16,135,30.16,77,30.16,85
30.18,132,30.18,96,30.18,84
30.2,161,30.2,86,30.2,98
30.22,156,30.22,92,30.22,83
30.24,164,30.24,84,30.24,112
30.26,177,30.26,67,30.26,90
30.28,156,30.28,76,30.28,96
30.3,138,30.3,76,30.3,96
30.32,144,30.32,68,30.32,99
30.34,121,30.34,75,30.34,103
30.36,117,30.36,79,30.36,112
30.38,101,30.38,78,30.38,90
30.4,105,30.4,77,30.4,111
30.42,99,30.42,82,30.42,83
30.44,92,30.44,73,30.44,99
30.46,91,30.46,79,30.46,89
30.48,94,30.48,85,30.48,93
30.5,76,30.5,84,30.5,94
30.52,67,30.52,84,30.52,94
30.54,90,30.54,75,30.54,101
30.56,79,30.56,72,30.56,105
30.58,66,30.58,67,30.58,87
30.6,80,30.6,69,30.6,79
30.62,67,30.62,83,30.62,98
30.64,78,30.64,80,30.64,83
30.66,77,30.66,72,30.66,92
30.68,80,30.68,65,30.68,84
30.7,76,30.7,73,30.7,76
30.72,72,30.72,72,30.72,92
30.74,88,30.74,73,30.74,75
30.76,85,30.76,56,30.76,94
30.78,85,30.78,67,30.78,89
30.8,106,30.8,63,30.8,83
30.82,94,30.82,67,30.82,85
30.84,108,30.84,72,30.84,93
30.86,118,30.86,73,30.86,83
30.88,125,30.88,78,30.88,85
30.9,126,30.9,84,30.9,76
30.92,133,30.92,79,30.92,78
30.94,130,30.94,82,30.94,76
30.96,140,30.96,76,30.96,68
30.98,139,30.98,67,30.98,80
31,150,31,71,31,68
31.02,182,31.02,67,31.02,72
31.04,161,31.04,77,31.04,68
31.06,203,31.06,74,31.06,57
31.08,173,31.08,90,31.08,85
31.1,154,31.1,85,31.1,64
31.12,143,31.12,66,31.12,56
31.14,143,31.14,80,31.14,83
31.16,124,31.16,91,31.16,75
31.18,92,31.18,69,31.18,67
31.2,90,31.2,73,31.2,54
31.22,79,31.22,76,31.22,75
31.24,85,31.24,93,31.24,74
31.26,77,31.26,75,31.26,71
31.28,61,31.28,79,31.28,63
31.3,68,31.3,74,31.3,72
31.32,59,31.32,63,31.32,85
31.34,64,31.34,86,31.34,66
31.36,57,31.36,65,31.36,89
31.38,57,31.38,87,31.38,69
31.4,40,31.4,77,31.4,76
31.42,55,31.42,77,31.42,82
31.44,46,31.44,72,31.44,70
31.46,57,31.46,67,31.46,81
31.48,58,31.48,63,31.48,66
31.5,64,31.5,68,31.5,83
31.52,55,31.52,72,31.52,74
31.54,65,31.54,72,31.54,79
31.56,54,31.56,60,31.56,66
31.58,53,31.58,82,31.58,73
31.6,57,31.6,91,31.6,84
31.62,52,31.62,82,31.62,78
31.64,61,31.64,65,31.64,75
31.66,58,31.66,70,31.66,85
31.68,67,31.68,65,31.68,72
31.7,56,31.7,67,31.7,81
31.72,53,31.72,70,31.72,84
31.74,54,31.74,66,31.74,74
31.76,57,31.76,67,31.76,67
31.78,57,31.78,67,31.78,71
31.8,55,31.8,68,31.8,77
31.82,44,31.82,72,31.82,77
31.84,66,31.84,63,31.84,78
31.86,63,31.86,85,31.86,61
31.88,69,31.88,76,31.88,54
31.9,56,31.9,84,31.9,60
31.92,74,31.92,84,31.92,66
31.94,56,31.94,91,31.94,59
31.96,52,31.96,92,31.96,55
31.98,57,31.98,94,31.98,55
32,61,32,89,32,73
32.02,63,32.02,92,32.02,63
32.04,56,32.04,83,32.04,52
32.06,48,32.06,75,32.06,48
32.08,69,32.08,94,32.08,60
32.1,52,32.1,103,32.1,56
32.12,62,32.12,94,32.12,62
32.14,55,32.14,87,32.14,61
32.16,52,32.16,99,32.16,58
32.18,62,32.18,98,32.18,56
32.2,66,32.2,104,32.2,80
32.22,63,32.22,89,32.22,67
32.24,62,32.24,75,32.24,67
32.26,80,32.26,72,32.26,64
32.28,72,32.28,82,32.28,81
32.3,82,32.3,74,32.3,72
32.32,87,32.32,87,32.32,66
32.34,76,32.34,65,32.34,78
32.36,82,32.36,71,32.36,60
32.38,84,32.38,70,32.38,77
32.4,100,32.4,67,32.4,70
32.42,80,32.42,67,32.42,54
32.44,69,32.44,79,32.44,53
32.46,71,32.46,68,32.46,52
32.48,65,32.48,74,32.48,50
32.5,81,32.5,78,32.5,65
32.52,71,32.52,91,32.52,55
32.54,65,32.54,71,32.54,71
32.56,97,32.56,62,32.56,71
32.58,72,32.58,70,32.58,77
32.6,77,32.6,66,32.6,78
32.62,88,32.62,60,32.62,87
32.64,84,32.64,78,32.64,71
32.66,84,32.66,71,32.66,67
32.68,91,32.68,69,32.68,63
32.7,75,32.7,70,32.7,90
32.72,66,32.72,74,32.72,86
32.74,75,32.74,80,32.74,86
32.76,84,32.76,81,32.76,82
32.78,71,32.78,78,32.78,90
32.8,65,32.8,73,32.8,77
32.82,86,32.82,76,32.82,90
32.84,81,32.84,62,32.84,94
32.86,92,32.86,71,32.86,71
32.88,94,32.88,80,32.88,94
32.9,83,32.9,77,32.9,75
32.92,102,32.92,73,32.92,63
32.94,104,32.94,67,32.94,96
32.96,86,32.96,67,32.96,92
32.98,106,32.98,75,32.98,79
33,95,33,56,33,93
33.02,72,33.02,69,33.02,93
33.04,67,33.04,47,33.04,79
33.06,94,33.06,66,33.06,70
33.08,89,33.08,89,33.08,58
33.1,70,33.1,73,33.1,69
33.12,91,33.12,82,33.12,64
33.14,83,33.14,89,33.14,47
33.16,91,33.16,82,33.16,54
33.18,84,33.18,75,33.18,65
33.2,79,33.2,60,33.2,42
33.22,78,33.22,74,33.22,50
33.24,72,33.24,69,33.24,53
33.26,86,33.26,73,33.26,50
33.28,87,33.28,66,33.28,52
33.3,90,33.3,83,33.3,54
33.32,94,33.32,56,33.32,50
33.34,102,33.34,55,33.34,45
33.36,94,33.36,67,33.36,62
33.38,86,33.38,55,33.38,47
33.4,96,33.4,72,33.4,47
33.42,109,33.42,64,33.42,41
33.44,98,33.44,53,33.44,54
33.46,91,33.46,61,33.46,47
33.48,96,33.48,63,33.48,50
33.5,95,33.5,63,33.5,55
33.52,96,33.52,68,33.52,45
33.54,83,33.54,55,33.54,47
33.56,93,33.56,58,33.56,48
33.58,94,33.58,51,33.58,42
33.6,95,33.6,69,33.6,49
33.62,90,33.62,65,33.62,37
33.64,70,33.64,65,33.64,37
33.66,77,33.66,72,33.66,35
33.68,82,33.68,53,33.68,40
33.7,74,33.7,68,33.7,58
33.72,75,33.72,64,33.72,47
33.74,82,33.74,60,33.74,49
33.76,97,33.76,57,33.76,82
33.78,86,33.78,57,33.78,43
33.8,99,33.8,68,33.8,53
33.82,107,33.82,77,33.82,45
33.84,109,33.84,64,33.84,48
33.86,113,33.86,59,33.86,54
33.88,117,33.88,68,33.88,53
33.9,140,33.9,66,33.9,59
33.92,114,33.92,60,33.92,55
33.94,99,33.94,66,33.94,57
33.96,93,33.96,63,33.96,50
33.98,97,33.98,83,33.98,56
34,76,34,82,34,58
34.02,84,34.02,66,34.02,58
34.04,64,34.04,61,34.04,66
34.06,57,34.06,84,34.06,62
34.08,49,34.08,93,34.08,56
34.1,51,34.1,66,34.1,46
34.12,46,34.12,53,34.12,59
34.14,47,34.14,86,34.14,72
34.16,48,34.16,64,34.16,63
34.18,41,34.18,58,34.18,64
34.2,42,34.2,79,34.2,70
34.22,33,34.22,74,34.22,80
34.24,40,34.24,87,34.24,73
34.26,36,34.26,70,34.26,62
34.28,47,34.28,67,34.28,63
34.3,40,34.3,77,34.3,68
34.32,46,34.32,70,34.32,80
34.34,51,34.34,59,34.34,69
34.36,50,34.36,79,34.36,71
34.38,55,34.38,54,34.38,68
34.4,51,34.4,68,34.4,77
34.42,36,34.42,72,34.42,72
34.44,48,34.44,64,34.44,84
34.46,37,34.46,66,34.46,57
34.48,44,34.48,52,34.48,57
34.5,42,34.5,67,34.5,59
34.52,33,34.52,50,34.52,62
34.54,47,34.54,74,34.54,72
34.56,51,34.56,64,34.56,60
34.58,49,34.58,60,34.58,68
34.6,33,34.6,69,34.6,76
34.62,33,34.62,57,34.62,69
34.64,41,34.64,64,34.64,52
34.66,45,34.66,48,34.66,59
34.68,45,34.68,48,34.68,64
34.7,48,34.7,70,34.7,53
34.72,44,34.72,54,34.72,61
34.74,52,34.74,60,34.74,46
34.76,50,34.76,71,34.76,49
34.78,50,34.78,63,34.78,40
34.8,39,34.8,47,34.8,60
34.82,59,34.82,50,34.82,41
34.84,55,34.84,55,34.84,44
34.86,53,34.86,54,34.86,61
34.88,50,34.88,56,34.88,38
34.9,58,34.9,46,34.9,34
34.92,65,34.92,42,34.92,42
34.94,61,34.94,47,34.94,40
34.96,75,34.96,50,34.96,41
34.98,44,34.98,45,34.98,42
35,53,35,48,35,51
35.02,59,35.02,37,35.02,56
35.04,55,35.04,40,35.04,40
35.06,50,35.06,48,35.06,37
35.08,48,35.08,49,35.08,43
35.1,53,35.1,46,35.1,35
35.12,52,35.12,46,35.12,45
35.14,39,35.14,28,35.14,45
35.16,48,35.16,47,35.16,53
35.18,49,35.18,48,35.18,58
35.2,45,35.2,41,35.2,50
35.22,50,35.22,65,35.22,50
35.24,42,35.24,47,35.24,45
35.26,42,35.26,43,35.26,45
35.28,52,35.28,53,35.28,48
35.3,41,35.3,49,35.3,42
35.32,49,35.32,66,35.32,48
35.34,48,35.34,56,35.34,50
35.36,40,35.36,43,35.36,38
35.38,59,35.38,59,35.38,56
35.4,45,35.4,49,35.4,46
35.42,34,35.42,52,35.42,54
35.44,34,35.44,53,35.44,52
35.46,41,35.46,55,35.46,53
35.48,32,35.48,51,35.48,60
35.5,37,35.5,56,35.5,47
35.52,40,35.52,70,35.52,66
35.54,44,35.54,50,35.54,49
35.56,29,35.56,66,35.56,65
35.58,54,35.58,61,35.58,66
35.6,42,35.6,63,35.6,64
35.62,40,35.62,64,35.62,58
35.64,36,35.64,61,35.64,56
35.66,47,35.66,63,35.66,77
35.68,57,35.68,57,35.68,68
35.7,48,35.7,62,35.7,65
35.72,53,35.72,59,35.72,67
35.74,67,35.74,49,35.74,63
35.76,66,35.76,51,35.76,72
35.78,72,35.78,55,35.78,59
35.8,61,35.8,45,35.8,63
35.82,79,35.82,49,35.82,52
35.84,64,35.84,61,35.84,56
35.86,65,35.86,49,35.86,73
35.88,60,35.88,57,35.88,51
35.9,65,35.9,53,35.9,60
35.92,62,35.92,65,35.92,55
35.94,63,35.94,46,35.94,63
35.96,69,35.96,47,35.96,45
35.98,64,35.98,45,35.98,63
36,63,36,61,36,58
36.02,55,36.02,51,36.02,48
36.04,59,36.04,52,36.04,54
36.06,56,36.06,39,36.06,51
36.08,54,36.08,51,36.08,49
36.1,48,36.1,46,36.1,45
36.12,46,36.12,50,36.12,53
36.14,52,36.14,49,36.14,56
36.16,51,36.16,62,36.16,51
36.18,40,36.18,58,36.18,56
36.2,41,36.2,46,36.2,53
36.22,49,36.22,49,36.22,38
36.24,45,36.24,50,36.24,49
36.26,40,36.26,57,36.26,48
36.28,46,36.28,40,36.28,44
36.3,52,36.3,50,36.3,47
36.32,46,36.32,59,36.32,49
36.34,52,36.34,60,36.34,60
36.36,57,36.36,59,36.36,49
36.38,72,36.38,72,36.38,56
36.4,60,36.4,63,36.4,41
36.42,51,36.42,52,36.42,63
36.44,62,36.44,44,36.44,61
36.46,60,36.46,35,36.46,76
36.48,57,36.48,49,36.48,66
36.5,56,36.5,43,36.5,58
36.52,46,36.52,55,36.52,46
36.54,50,36.54,65,36.54,40
36.56,62,36.56,41,36.56,68
36.58,52,36.58,51,36.58,52
36.6,51,36.6,43,36.6,62
36.62,44,36.62,45,36.62,67
36.64,43,36.64,45,36.64,44
36.66,49,36.66,51,36.66,71
36.68,52,36.68,36,36.68,37
36.7,44,36.7,40,36.7,50
36.72,46,36.72,46,36.72,52
36.74,49,36.74,45,36.74,34
36.76,43,36.76,33,36.76,49
36.78,37,36.78,40,36.78,48
36.8,44,36.8,35,36.8,46
36.82,30,36.82,36,36.82,47
36.84,39,36.84,38,36.84,43
36.86,29,36.86,42,36.86,51
36.88,42,36.88,37,36.88,32
36.9,34,36.9,52,36.9,43
36.92,37,36.92,40,36.92,24
36.94,46,36.94,41,36.94,42
36.96,48,36.96,37,36.96,37
36.98,39,36.98,59,36.98,44
37,51,37,42,37,48
37.02,51,37.02,39,37.02,33
37.04,39,37.04,45,37.04,36
37.06,48,37.06,50,37.06,44
37.08,43,37.08,40,37.08,47
37.1,57,37.1,44,37.1,44
37.12,55,37.12,39,37.12,42
37.14,60,37.14,49,37.14,43
37.16,80,37.16,55,37.16,46
37.18,55,37.18,62,37.18,54
37.2,68,37.2,51,37.2,39
37.22,70,37.22,49,37.22,50
37.24,77,37.24,45,37.24,59
37.26,73,37.26,63,37.26,31
37.28,90,37.28,48,37.28,36
37.3,80,37.3,53,37.3,44
37.32,77,37.32,51,37.32,45
37.34,73,37.34,56,37.34,43
37.36,90,37.36,52,37.36,51
37.38,83,37.38,69,37.38,41
37.4,88,37.4,55,37.4,46
37.42,102,37.42,61,37.42,40
37.44,105,37.44,52,37.44,36
37.46,83,37.46,42,37.46,35
37.48,95,37.48,45,37.48,37
37.5,76,37.5,49,37.5,45
37.52,77,37.52,54,37.52,50
37.54,71,37.54,71,37.54,40
37.56,81,37.56,60,37.56,38
37.58,64,37.58,48,37.58,29
37.6,87,37.6,49,37.6,32
37.62,70,37.62,61,37.62,42
37.64,57,37.64,49,37.64,52
37.66,64,37.66,58,37.66,57
37.68,68,37.68,36,37.68,56
37.7,68,37.7,45,37.7,46
37.72,72,37.72,55,37.72,41
37.74,61,37.74,57,37.74,35
37.76,72,37.76,45,37.76,51
37.78,56,37.78,55,37.78,40
37.8,54,37.8,55,37.8,63
37.82,78,37.82,61,37.82,39
37.84,79,37.84,61,37.84,46
37.86,65,37.86,35,37.86,43
37.88,80,37.88,57,37.88,45
37.9,69,37.9,51,37.9,49
37.92,68,37.92,63,37.92,55
37.94,60,37.94,57,37.94,45
37.96,65,37.96,48,37.96,50
37.98,64,37.98,38,37.98,60
38,81,38,34,38,47
38.02,66,38.02,42,38.02,44
38.04,75,38.04,41,38.04,44
38.06,64,38.06,36,38.06,61
38.08,58,38.08,37,38.08,51
38.1,45,38.1,45,38.1,51
38.12,58,38.12,44,38.12,41
38.14,59,38.14,41,38.14,49
38.16,50,38.16,39,38.16,47
38.18,51,38.18,44,38.18,37
38.2,56,38.2,40,38.2,41
38.22,44,38.22,40,38.22,41
38.24,53,38.24,36,38.24,41
38.26,47,38.26,36,38.26,44
38.28,51,38.28,29,38.28,34
38.3,43,38.3,35,38.3,31
38.32,48,38.32,36,38.32,47
38.34,46,38.34,39,38.34,36
38.36,42,38.36,42,38.36,38
38.38,35,38.38,59,38.38,42
38.4,42,38.4,48,38.4,38
38.42,48,38.42,38,38.42,41
38.44,54,38.44,44,38.44,28
38.46,49,38.46,40,38.46,41
38.48,45,38.48,45,38.48,36
38.5,44,38.5,40,38.5,43
38.52,48,38.52,43,38.52,40
38.54,48,38.54,44,38.54,39
38.56,46,38.56,40,38.56,48
38.58,42,38.58,35,38.58,52
38.6,52,38.6,35,38.6,36
38.62,62,38.62,35,38.62,31
38.64,46,38.64,43,38.64,44
38.66,51,38.66,33,38.66,45
38.68,60,38.68,39,38.68,29
38.7,53,38.7,55,38.7,35
38.72,54,38.72,46,38.72,47
38.74,59,38.74,46,38.74,45
38.76,81,38.76,46,38.76,47
38.78,65,38.78,38,38.78,37
38.8,60,38.8,44,38.8,51
38.82,70,38.82,46,38.82,32
38.84,82,38.84,44,38.84,54
38.86,93,38.86,37,38.86,36
38.88,91,38.88,53,38.88,38
38.9,87,38.9,45,38.9,49
38.92,102,38.92,59,38.92,48
38.94,84,38.94,33,38.94,55
38.96,92,38.96,44,38.96,35
38.98,69,38.98,51,38.98,49
39,73,39,58,39,50
39.02,78,39.02,46,39.02,51
39.04,79,39.04,49,39.04,53
39.06,62,39.06,43,39.06,58
39.08,61,39.08,50,39.08,44
39.1,46,39.1,49,39.1,49
39.12,52,39.12,47,39.12,38
39.14,70,39.14,47,39.14,40
39.16,63,39.16,41,39.16,48
39.18,61,39.18,47,39.18,43
39.2,53,39.2,62,39.2,37
39.22,53,39.22,51,39.22,41
39.24,54,39.24,48,39.24,40
39.26,53,39.26,55,39.26,42
39.28,56,39.28,42,39.28,43
39.3,61,39.3,50,39.3,42
39.32,58,39.32,73,39.32,49
39.34,59,39.34,39,39.34,56
39.36,67,39.36,39,39.36,42
39.38,62,39.38,49,39.38,44
39.4,70,39.4,35,39.4,41
39.42,60,39.42,53,39.42,58
39.44,89,39.44,46,39.44,42
39.46,73,39.46,38,39.46,60
39.48,60,39.48,42,39.48,49
39.5,74,39.5,38,39.5,49
39.52,54,39.52,36,39.52,60
39.54,62,39.54,48,39.54,48
39.56,66,39.56,48,39.56,53
39.58,78,39.58,40,39.58,29
39.6,74,39.6,43,39.6,42
39.62,56,39.62,52,39.62,48
39.64,58,39.64,33,39.64,67
39.66,63,39.66,40,39.66,59
39.68,71,39.68,39,39.68,52
39.7,63,39.7,37,39.7,64
39.72,62,39.72,45,39.72,50
39.74,51,39.74,43,39.74,56
39.76,68,39.76,41,39.76,52
39.78,80,39.78,33,39.78,48
39.8,68,39.8,46,39.8,60
39.82,62,39.82,35,39.82,66
39.84,56,39.84,33,39.84,57
39.86,40,39.86,45,39.86,58
39.88,54,39.88,29,39.88,53
39.9,56,39.9,35,39.9,56
39.92,60,39.92,50,39.92,56
39.94,44,39.94,37,39.94,72
39.96,63,39.96,36,39.96,44
39.98,61,39.98,45,39.98,63
40,59,40,43,40,67
40.02,54,40.02,31,40.02,77
40.04,50,40.04,43,40.04,55
40.06,48,40.06,38,40.06,56
40.08,59,40.08,43,40.08,71
40.1,51,40.1,32,40.1,45
40.12,42,40.12,35,40.12,45
40.14,42,40.14,45,40.14,54
40.16,48,40.16,51,40.16,54
40.18,39,40.18,51,40.18,33
40.2,36,40.2,46,40.2,67
40.22,53,40.22,35,40.22,67
40.24,57,40.24,27,40.24,70
40.26,55,40.26,36,40.26,54
40.28,49,40.28,34,40.28,52
40.3,47,40.3,40,40.3,49
40.32,47,40.32,46,40.32,50
40.34,55,40.34,34,40.34,50
40.36,39,40.36,32,40.36,51
40.38,48,40.38,40,40.38,57
40.4,50,40.4,42,40.4,57
40.42,58,40.42,41,40.42,60
40.44,67,40.44,32,40.44,48
40.46,59,40.46,49,40.46,42
40.48,68,40.48,43,40.48,63
40.5,73,40.5,38,40.5,54
40.52,53,40.52,37,40.52,40
40.54,63,40.54,40,40.54,48
40.56,59,40.56,48,40.56,58
40.58,79,40.58,60,40.58,57
40.6,62,40.6,45,40.6,34
40.62,58,40.62,58,40.62,53
40.64,80,40.64,41,40.64,44
40.66,70,40.66,43,40.66,59
40.68,70,40.68,35,40.68,42
40.7,85,40.7,35,40.7,40
40.72,75,40.72,43,40.72,37
40.74,85,40.74,33,40.74,46
40.76,76,40.76,41,40.76,41
40.78,68,40.78,49,40.78,59
40.8,80,40.8,48,40.8,57
40.82,66,40.82,32,40.82,48
40.84,67,40.84,31,40.84,43
40.86,69,40.86,40,40.86,40
40.88,53,40.88,52,40.88,45
40.9,62,40.9,45,40.9,47
40.92,54,40.92,39,40.92,44
40.94,61,40.94,61,40.94,52
40.96,53,40.96,39,40.96,46
40.98,40,40.98,39,40.98,66
41,44,41,46,41,48
41.02,40,41.02,52,41.02,48
41.04,51,41.04,44,41.04,55
41.06,41,41.06,39,41.06,57
41.08,34,41.08,47,41.08,54
41.1,50,41.1,41,41.1,48
41.12,45,41.12,58,41.12,48
41.14,45,41.14,46,41.14,56
41.16,41,41.16,49,41.16,60
41.18,39,41.18,45,41.18,64
41.2,45,41.2,48,41.2,53
41.22,49,41.22,47,41.22,51
41.24,52,41.24,51,41.24,63
41.26,43,41.26,46,41.26,55
41.28,51,41.28,44,41.28,57
41.3,47,41.3,55,41.3,47
41.32,39,41.32,48,41.32,64
41.34,55,41.34,58,41.34,60
41.36,48,41.36,41,41.36,54
41.38,61,41.38,67,41.38,64
41.4,44,41.4,65,41.4,48
41.42,60,41.42,65,41.42,48
41.44,45,41.44,67,41.44,67
41.46,58,41.46,64,41.46,57
41.48,70,41.48,54,41.48,68
41.5,52,41.5,85,41.5,69
41.52,57,41.52,74,41.52,53
41.54,58,41.54,77,41.54,64
41.56,42,41.56,87,41.56,58
41.58,50,41.58,87,41.58,48
41.6,58,41.6,76,41.6,58
41.62,53,41.62,63,41.62,60
41.64,71,41.64,91,41.64,64
41.66,64,41.66,81,41.66,62
41.68,88,41.68,92,41.68,64
41.7,79,41.7,84,41.7,62
41.72,69,41.72,65,41.72,77
41.74,82,41.74,95,41.74,41
41.76,81,41.76,89,41.76,49
41.78,79,41.78,77,41.78,72
41.8,70,41.8,80,41.8,63
41.82,65,41.82,87,41.82,64
41.84,70,41.84,80,41.84,67
41.86,71,41.86,87,41.86,58
41.88,61,41.88,66,41.88,63
41.9,75,41.9,71,41.9,70
41.92,76,41.92,69,41.92,64
41.94,65,41.94,81,41.94,92
41.96,61,41.96,77,41.96,67
41.98,62,41.98,71,41.98,79
42,49,42,61,42,78
42.02,61,42.02,53,42.02,90
42.04,56,42.04,84,42.04,74
42.06,60,42.06,56,42.06,76
42.08,64,42.08,70,42.08,95
42.1,59,42.1,69,42.1,85
42.12,76,42.12,68,42.12,88
42.14,72,42.14,66,42.14,86
42.16,62,42.16,64,42.16,65
42.18,65,42.18,51,42.18,97
42.2,64,42.2,61,42.2,59
42.22,99,42.22,51,42.22,68
42.24,61,42.24,58,42.24,96
42.26,73,42.26,77,42.26,74
42.28,70,42.28,56,42.28,76
42.3,68,42.3,48,42.3,84
42.32,75,42.32,59,42.32,85
42.34,85,42.34,50,42.34,63
42.36,81,42.36,61,42.36,76
42.38,81,42.38,56,42.38,74
42.4,84,42.4,64,42.4,67
42.42,68,42.42,45,42.42,57
42.44,84,42.44,51,42.44,75
42.46,89,42.46,30,42.46,74
42.48,85,42.48,51,42.48,56
42.5,78,42.5,53,42.5,66
42.52,62,42.52,45,42.52,68
42.54,80,42.54,62,42.54,46
42.56,62,42.56,50,42.56,59
42.58,76,42.58,53,42.58,61
42.6,85,42.6,48,42.6,58
42.62,98,42.62,53,42.62,61
42.64,103,42.64,53,42.64,56
42.66,86,42.66,56,42.66,50
42.68,109,42.68,50,42.68,48
42.7,92,42.7,52,42.7,45
42.72,97,42.72,55,42.72,58
42.74,130,42.74,65,42.74,60
42.76,134,42.76,50,42.76,46
42.78,125,42.78,60,42.78,49
42.8,145,42.8,40,42.8,56
42.82,134,42.82,61,42.82,62
42.84,152,42.84,58,42.84,49
42.86,124,42.86,52,42.86,57
42.88,132,42.88,49,42.88,64
42.9,146,42.9,52,42.9,64
42.92,127,42.92,57,42.92,60
42.94,120,42.94,53,42.94,67
42.96,109,42.96,56,42.96,48
42.98,128,42.98,56,42.98,62
43,106,43,53,43,68
43.02,109,43.02,53,43.02,63
43.04,104,43.04,66,43.04,61
43.06,95,43.06,53,43.06,71
43.08,98,43.08,46,43.08,62
43.1,86,43.1,43,43.1,65
43.12,105,43.12,46,43.12,50
43.14,104,43.14,35,43.14,68
43.16,96,43.16,48,43.16,63
43.18,100,43.18,57,43.18,63
43.2,78,43.2,37,43.2,66
43.22,87,43.22,52,43.22,59
43.24,80,43.24,55,43.24,65
43.26,80,43.26,42,43.26,46
43.28,74,43.28,43,43.28,76
43.3,78,43.3,40,43.3,51
43.32,56,43.32,43,43.32,64
43.34,61,43.34,51,43.34,50
43.36,62,43.36,55,43.36,54
43.38,60,43.38,50,43.38,56
43.4,64,43.4,41,43.4,74
43.42,52,43.42,48,43.42,50
43.44,49,43.44,42,43.44,48
43.46,49,43.46,41,43.46,49
43.48,61,43.48,42,43.48,42
43.5,34,43.5,47,43.5,43
43.52,65,43.52,53,43.52,52
43.54,52,43.54,45,43.54,36
43.56,46,43.56,47,43.56,49
43.58,38,43.58,47,43.58,38
43.6,62,43.6,33,43.6,44
43.62,41,43.62,46,43.62,45
43.64,49,43.64,39,43.64,52
43.66,70,43.66,56,43.66,44
43.68,52,43.68,54,43.68,53
43.7,58,43.7,44,43.7,35
43.72,56,43.72,51,43.72,53
43.74,50,43.74,35,43.74,53
43.76,57,43.76,29,43.76,44
43.78,43,43.78,47,43.78,40
43.8,63,43.8,38,43.8,53
43.82,56,43.82,39,43.82,45
43.84,65,43.84,40,43.84,48
43.86,65,43.86,44,43.86,46
43.88,73,43.88,46,43.88,45
43.9,66,43.9,53,43.9,53
43.92,69,43.92,39,43.92,35
43.94,54,43.94,38,43.94,44
43.96,68,43.96,41,43.96,38
43.98,68,43.98,38,43.98,52
44,60,44,60,44,42
44.02,55,44.02,29,44.02,40
44.04,66,44.04,49,44.04,63
44.06,86,44.06,53,44.06,60
44.08,54,44.08,43,44.08,48
44.1,72,44.1,46,44.1,54
44.12,54,44.12,43,44.12,52
44.14,44,44.14,52,44.14,36
44.16,43,44.16,49,44.16,57
44.18,50,44.18,50,44.18,62
44.2,54,44.2,38,44.2,71
44.22,49,44.22,46,44.22,54
44.24,37,44.24,52,44.24,60
44.26,39,44.26,54,44.26,54
44.28,58,44.28,54,44.28,50
44.3,44,44.3,45,44.3,51
44.32,39,44.32,43,44.32,59
44.34,45,44.34,47,44.34,37
44.36,51,44.36,41,44.36,63
44.38,36,44.38,45,44.38,49
44.4,38,44.4,50,44.4,59
44.42,55,44.42,53,44.42,52
44.44,40,44.44,61,44.44,69
44.46,55,44.46,46,44.46,53
44.48,50,44.48,51,44.48,58
44.5,54,44.5,52,44.5,46
44.52,49,44.52,54,44.52,52
44.54,48,44.54,43,44.54,55
44.56,53,44.56,53,44.56,48
44.58,48,44.58,43,44.58,46
44.6,47,44.6,37,44.6,56
44.62,57,44.62,53,44.62,54
44.64,35,44.64,47,44.64,44
44.66,46,44.66,55,44.66,59
44.68,48,44.68,48,44.68,49
44.7,57,44.7,51,44.7,66
44.72,53,44.72,47,44.72,62
44.74,53,44.74,62,44.74,41
44.76,42,44.76,54,44.76,52
44.78,43,44.78,72,44.78,45
44.8,53,44.8,48,44.8,48
44.82,51,44.82,60,44.82,50
44.84,53,44.84,49,44.84,52
44.86,42,44.86,52,44.86,52
44.88,59,44.88,47,44.88,50
44.9,59,44.9,48,44.9,53
44.92,36,44.92,54,44.92,44
44.94,32,44.94,54,44.94,61
44.96,37,44.96,45,44.96,42
44.98,50,44.98,49,44.98,69
45,39,45,57,45,57
45.02,43,45.02,53,45.02,52
45.04,28,45.04,53,45.04,54
45.06,52,45.06,64,45.06,54
45.08,52,45.08,52,45.08,58
45.1,58,45.1,57,45.1,47
45.12,53,45.12,62,45.12,39
45.14,51,45.14,55,45.14,63
45.16,42,45.16,60,45.16,55
45.18,48,45.18,50,45.18,49
45.2,49,45.2,51,45.2,43
45.22,43,45.22,66,45.22,48
45.24,56,45.24,58,45.24,58
45.26,57,45.26,50,45.26,59
45.28,73,45.28,40,45.28,61
45.3,72,45.3,58,45.3,52
45.32,72,45.32,56,45.32,45
45.34,59,45.34,44,45.34,61
45.36,60,45.36,41,45.36,48
45.38,60,45.38,44,45.38,50
45.4,64,45.4,41,45.4,50
45.42,52,45.42,52,45.42,37
45.44,60,45.44,53,45.44,59
45.46,58,45.46,48,45.46,40
45.48,57,45.48,43,45.48,56
45.5,56,45.5,62,45.5,47
45.52,60,45.52,45,45.52,52
45.54,43,45.54,55,45.54,53
45.56,37,45.56,52,45.56,48
45.58,51,45.58,53,45.58,46
45.6,43,45.6,44,45.6,48
45.62,52,45.62,48,45.62,43
45.64,46,45.64,65,45.64,53
45.66,51,45.66,43,45.66,44
45.68,43,45.68,45,45.68,31
45.7,45,45.7,45,45.7,48
45.72,40,45.72,54,45.72,40
45.74,50,45.74,44,45.74,44
45.76,56,45.76,60,45.76,35
45.78,49,45.78,39,45.78,47
45.8,39,45.8,48,45.8,47
45.82,37,45.82,49,45.82,47
45.84,46,45.84,48,45.84,45
45.86,39,45.86,41,45.86,51
45.88,46,45.88,36,45.88,36
45.9,41,45.9,53,45.9,38
45.92,46,45.92,41,45.92,35
45.94,38,45.94,42,45.94,43
45.96,40,45.96,44,45.96,45
45.98,52,45.98,41,45.98,27
46,53,46,49,46,39
46.02,48,46.02,43,46.02,34
46.04,30,46.04,36,46.04,36
46.06,39,46.06,59,46.06,50
46.08,51,46.08,44,46.08,40
46.1,48,46.1,48,46.1,39
46.12,38,46.12,39,46.12,44
46.14,48,46.14,54,46.14,42
46.16,49,46.16,52,46.16,37
46.18,38,46.18,49,46.18,54
46.2,45,46.2,44,46.2,34
46.22,47,46.22,45,46.22,35
46.24,39,46.24,53,46.24,41
46.26,34,46.26,48,46.26,32
46.28,36,46.28,52,46.28,46
46.3,45,46.3,43,46.3,41
46.32,41,46.32,44,46.32,32
46.34,35,46.34,53,46.34,45
46.36,25,46.36,49,46.36,52
46.38,35,46.38,46,46.38,53
46.4,35,46.4,44,46.4,39
46.42,35,46.42,37,46.42,35
46.44,38,46.44,54,46.44,40
46.46,32,46.46,53,46.46,48
46.48,39,46.48,47,46.48,38
46.5,42,46.5,55,46.5,42
46.52,46,46.52,44,46.52,46
46.54,50,46.54,47,46.54,39
46.56,32,46.56,40,46.56,29
46.58,34,46.58,56,46.58,35
46.6,27,46.6,38,46.6,39
46.62,34,46.62,56,46.62,45
46.64,38,46.64,41,46.64,34
46.66,49,46.66,59,46.66,49
46.68,41,46.68,47,46.68,45
46.7,38,46.7,51,46.7,45
46.72,38,46.72,47,46.72,35
46.74,28,46.74,40,46.74,48
46.76,37,46.76,38,46.76,47
46.78,29,46.78,36,46.78,51
46.8,36,46.8,50,46.8,50
46.82,25,46.82,51,46.82,54
46.84,44,46.84,44,46.84,55
46.86,49,46.86,54,46.86,43
46.88,39,46.88,47,46.88,50
46.9,40,46.9,36,46.9,46
46.92,38,46.92,37,46.92,69
46.94,50,46.94,48,46.94,56
46.96,42,46.96,33,46.96,48
46.98,55,46.98,53,46.98,51
47,44,47,40,47,62
47.02,38,47.02,37,47.02,42
47.04,55,47.04,61,47.04,52
47.06,50,47.06,35,47.06,38
47.08,58,47.08,46,47.08,52
47.1,49,47.1,31,47.1,57
47.12,50,47.12,51,47.12,46
47.14,42,47.14,38,47.14,60
47.16,52,47.16,50,47.16,45
47.18,37,47.18,41,47.18,46
47.2,43,47.2,29,47.2,49
47.22,53,47.22,48,47.22,38
47.24,50,47.24,34,47.24,51
47.26,50,47.26,40,47.26,45
47.28,45,47.28,37,47.28,42
47.3,54,47.3,42,47.3,43
47.32,55,47.32,43,47.32,46
47.34,50,47.34,32,47.34,39
47.36,49,47.36,34,47.36,54
47.38,64,47.38,38,47.38,43
47.4,41,47.4,42,47.4,51
47.42,55,47.42,50,47.42,45
47.44,58,47.44,43,47.44,49
47.46,42,47.46,28,47.46,52
47.48,40,47.48,45,47.48,38
47.5,48,47.5,37,47.5,52
47.52,42,47.52,45,47.52,34
47.54,48,47.54,32,47.54,48
47.56,50,47.56,45,47.56,37
47.58,58,47.58,47,47.58,29
47.6,55,47.6,33,47.6,36
47.62,58,47.62,44,47.62,34
47.64,56,47.64,34,47.64,38
47.66,62,47.66,47,47.66,41
47.68,47,47.68,42,47.68,34
47.7,62,47.7,32,47.7,31
47.72,50,47.72,37,47.72,35
47.74,68,47.74,42,47.74,43
47.76,55,47.76,40,47.76,50
47.78,52,47.78,42,47.78,37
47.8,67,47.8,39,47.8,37
47.82,63,47.82,34,47.82,41
47.84,60,47.84,39,47.84,42
47.86,51,47.86,35,47.86,34
47.88,76,47.88,35,47.88,37
47.9,51,47.9,38,47.9,35
47.92,52,47.92,50,47.92,37
47.94,50,47.94,32,47.94,61
47.96,55,47.96,35,47.96,50
47.98,57,47.98,33,47.98,37
48,49,48,34,48,42
48.02,48,48.02,30,48.02,43
48.04,37,48.04,35,48.04,22
48.06,43,48.06,37,48.06,39
48.08,60,48.08,48,48.08,32
48.1,64,48.1,39,48.1,49
48.12,63,48.12,33,48.12,41
48.14,53,48.14,37,48.14,35
48.16,72,48.16,39,48.16,34
48.18,66,48.18,49,48.18,43
48.2,66,48.2,48,48.2,42
48.22,58,48.22,36,48.22,41
48.24,66,48.24,38,48.24,38
48.26,58,48.26,43,48.26,39
48.28,52,48.28,43,48.28,50
48.3,64,48.3,29,48.3,40
48.32,52,48.32,42,48.32,36
48.34,56,48.34,48,48.34,52
48.36,62,48.36,39,48.36,52
48.38,58,48.38,38,48.38,53
48.4,51,48.4,33,48.4,37
48.42,69,48.42,50,48.42,43
48.44,65,48.44,31,48.44,37
48.46,49,48.46,37,48.46,36
48.48,41,48.48,42,48.48,45
48.5,37,48.5,31,48.5,32
48.52,38,48.52,41,48.52,38
48.54,34,48.54,45,48.54,30
48.56,42,48.56,44,48.56,36
48.58,42,48.58,30,48.58,45
48.6,39,48.6,36,48.6,45
48.62,38,48.62,41,48.62,33
48.64,47,48.64,42,48.64,43
48.66,44,48.66,37,48.66,36
48.68,54,48.68,42,48.68,35
48.7,32,48.7,37,48.7,34
48.72,44,48.72,47,48.72,26
48.74,41,48.74,39,48.74,37
48.76,49,48.76,45,48.76,51
48.78,44,48.78,51,48.78,40
48.8,42,48.8,39,48.8,36
48.82,44,48.82,48,48.82,34
48.84,35,48.84,43,48.84,35
48.86,42,48.86,28,48.86,27
48.88,50,48.88,45,48.88,47
48.9,43,48.9,38,48.9,32
48.92,36,48.92,39,48.92,47
48.94,35,48.94,46,48.94,32
48.96,40,48.96,50,48.96,29
48.98,37,48.98,38,48.98,44
49,33,49,29,49,46
49.02,35,49.02,42,49.02,39
49.04,31,49.04,48,49.04,52
49.06,36,49.06,41,49.06,44
49.08,28,49.08,36,49.08,40
49.1,49,49.1,35,49.1,40
49.12,36,49.12,42,49.12,51
49.14,36,49.14,43,49.14,59
49.16,34,49.16,37,49.16,48
49.18,36,49.18,35,49.18,60
49.2,27,49.2,40,49.2,47
49.22,37,49.22,38,49.22,38
49.24,42,49.24,47,49.24,54
49.26,37,49.26,44,49.26,42
49.28,46,49.28,42,49.28,46
49.3,34,49.3,40,49.3,49
49.32,32,49.32,34,49.32,55
49.34,36,49.34,30,49.34,43
49.36,46,49.36,36,49.36,49
49.38,39,49.38,41,49.38,52
49.4,38,49.4,36,49.4,42
49.42,53,49.42,37,49.42,44
49.44,50,49.44,30,49.44,52
49.46,32,49.46,35,49.46,42
49.48,41,49.48,33,49.48,42
49.5,47,49.5,31,49.5,28
49.52,51,49.52,33,49.52,43
49.54,38,49.54,35,49.54,45
49.56,37,49.56,48,49.56,40
49.58,33,49.58,42,49.58,37
49.6,36,49.6,30,49.6,55
49.62,35,49.62,28,49.62,43
49.64,37,49.64,37,49.64,31
49.66,38,49.66,41,49.66,38
49.68,42,49.68,28,49.68,40
49.7,52,49.7,25,49.7,35
49.72,43,49.72,32,49.72,42
49.74,49,49.74,34,49.74,32
49.76,44,49.76,35,49.76,41
49.78,39,49.78,30,49.78,33
49.8,51,49.8,30,49.8,41
49.82,54,49.82,29,49.82,46
49.84,39,49.84,37,49.84,41
49.86,36,49.86,36,49.86,36
49.88,57,49.88,34,49.88,42
49.9,50,49.9,29,49.9,43
49.92,34,49.92,34,49.92,36
49.94,27,49.94,27,49.94,44
49.96,42,49.96,53,49.96,31
49.98,27,49.98,32,49.98,37
50,34,50,34,50,45
